900
3999.43349933624
648.556783676147
1
128
8
100.102240714625
100.109797697888
100.143396312394
100.127839667831
100.081563966778
100.160577807246
100.285776022288
100.18679447969
100.041397855187
100.0264709357
100.046716074797
100.109760802141
100.138822602614
100.072919982004
100.016328167431
100.100350290397
100.190230347876
100.132635528751
100.092736889951
100.184579942198
100.141340224564
100.13283273356
100.070449668568
100.051498102917
100.104260698615
100.141503567733
100.185647882744
100.133825988198
100.192734290878
100.236968573279
100.136865329931
100.099201915761
100.081377045689
100.084580316143
100.089052709417
100.068424021977
100.177186553628
100.165671314591
100.088811566621
100.018883327738
100.066932980459
100.124639852725
100.119429049387
100.191055394327
100.210368914493
100.106266320571
100.048660826865
100.086208698499
100.143814912581
100.08410473959
100.054922553177
100.119235616211
100.150437329401
100.243758799709
100.24404178653
100.174892637632
100.086423734856
100.037472417958
100.039001654305
100.094573975296
100.116656112588
100.104259246523
100.080400737514
100.085356429515
100.156028802984
100.245962360148
100.27857058286
100.113119023222
100.048438990921
100.202226493145
100.264072030309
100.035781388288
99.9343820376634
100.108358523334
100.09868095691
100.069663681542
100.168405843298
100.099935360435
100.009441930665
100.120481934702
100.185795875055
100.159594353866
100.181520917452
100.229906241865
100.050029927152
100.044741989838
100.216139383458
100.248416686281
99.9991833335455
99.8935689817386
100.075711038525
100.280779259114
100.213035730144
100.1817243954
100.247933237087
100.052352535355
100.073639463417
100.254322147705
100.240201529428
100.08392344718
99.9944975933102
100.029904029275
100.099657846285
100.171114342961
100.104852366406
99.9631197845545
99.9870974954921
100.033296273574
99.9666738399984
99.9369559409231
100.114864413389
100.202073235112
100.238987180151
100.259370294603
100.24648238442
100.067526003373
100.036744243111
100.077944806799
99.9983934909402
99.9305818862894
100.002530348851
100.007468918615
99.9375733297625
99.9586628745467
100.092393343993
100.147776405305
100.054397025642
99.9758356405677
99.9464349341469
100.004001707563
100.036997210552
100.019571120013
99.8917381785093
99.8178782204976
99.8649858434792
100.210642012373
100.23081981021
99.9410363713204
99.9713733214981
100.047455098787
100.055358777237
100.015179490448
100.158831245592
100.093700966243
99.9622821151004
100.035735274979
99.9538786586437
100.081337059929
100.204687918918
100.210102643465
100.061903915748
99.962616890514
100.232893012627
100.260068370716
100.071073644724
100.212367963004
100.079727123004
100.00416298349
100.003735828281
99.8853849609443
99.9123927719813
100.058785936527
100.114376619079
100.015423125095
99.878878066701
99.9144216776551
100.040927218789
100.047779221889
100.231761117422
100.333979620182
99.9178882677491
99.8672688445317
100.104252547814
100.181557970231
100.198709502369
100.274136236686
100.168728248963
99.8298968314576
99.7913890748796
99.942308854348
100.097078023067
100.226016790847
100.115532553818
99.9651741135028
100.215216913416
100.146980684025
99.7735982804973
99.8425216262031
99.8100812411819
99.8455161127391
100.199100976919
100.178497979328
100.014152312905
100.016709834613
99.975364228358
99.8269712843479
99.8314215651154
99.6837999517527
99.6087658642685
99.8103985926106
99.9507604740598
99.9138872901511
99.875966174764
100.017653385629
99.9663868251037
99.7895150890044
99.7952077485916
99.6202474812198
99.6301613056789
99.5771496200743
99.676833933006
99.6723387287338
99.7252829645074
99.8602701553835
99.782685512817
99.6710565628113
99.6190945584846
99.5440782426313
99.4218760570283
99.5371827680956
99.6979079056871
99.6862971498213
99.5028645443987
99.313515137332
99.3226711215601
99.3914499265677
99.4459575937269
99.396808228213
99.343216246773
99.1843570144449
99.2759827289198
99.3210800519692
99.2787514752644
99.3392512445139
99.2957337880589
99.2938594403978
99.4322585896386
99.4368209598616
99.2284866355764
99.0545709423111
99.1207977255612
99.2717568852836
99.3770830009445
99.4321974740683
99.3984388403101
99.3137314227019
99.2009715037107
99.1960537195874
99.3660230155582
99.4332954264471
99.3901767414435
99.3606632953971
99.3336113224558
99.2441060175391
99.2629187848194
99.3879043680864
99.3632534885528
99.296467252944
99.361163755667
99.4092774437391
99.399707309946
99.3975010581737
99.3766730361685
99.4523005033634
99.5154874879443
99.4084657847605
99.4296751958206
99.5784442666452
99.5944707621773
99.5548576054858
99.5466124939461
99.6032602049789
99.6234163766463
99.531711998272
99.5124948907658
99.4997814716718
99.5338618512597
99.6059488481315
99.6019593445645
99.5726105824967
99.5533151006032
99.5573860646264
99.5410707565367
99.5751629456561
99.6473796670168
99.6367918177521
99.5816403620633
99.6066361853919
99.6825998155364
99.6944716163355
99.6463337581768
99.5521069753964
99.6272093258055
99.7759779966474
99.7278557342531
99.6202204095847
99.6463750286901
99.7238320508297
99.7525760210471
99.7338990483893
99.7158633876567
99.7587868180508
99.7416934001534
99.6836984086392
99.6989453741034
99.7499129468254
99.7641460409959
99.7771627617992
99.7902555276152
99.8116100000178
99.8488797058828
99.8525416786186
99.8278305058568
99.7834609262509
99.7359415650498
99.7410927452948
99.8127920233801
99.8407997631684
99.8181010712304
99.8147346236516
99.8497917321806
99.8494284488819
99.8582126983989
99.8878851800742
99.8704123828848
99.84282065632
99.8185103513465
99.8557064022949
99.8804560599174
99.8481519670051
99.8556840970223
99.8861779721031
99.8791110978436
99.8812121441365
99.9011654765657
99.9063712348378
99.8827508789888
99.8829250493434
99.8820530677818
99.8629931606916
99.8551574840763
99.8495663083857
99.848648202247
99.9052016452814
99.967223840775
99.9538982082081
99.9016047232727
99.8921410699816
99.926515979977
99.9094776863106
99.8996042561567
99.9405979322071
99.9613599907119
99.9355417652942
99.897136490047
99.890224701261
99.8781532472967
99.9031088107063
99.930817379656
99.8946014838751
99.8918184941603
99.9249285941234
99.9501109219536
99.9551197118846
99.9373180724827
99.9309373869414
99.9308611742107
99.9154791883478
99.9208536990282
99.9474997189269
99.9743333805358
100.014470779197
99.9778083963161
99.9551980986103
99.9448821755565
99.8932202817095
99.9147174980628
99.959014956541
99.909308088465
99.9342016078466
99.9650682261419
99.9379524584689
99.8863073597332
99.8648316184516
99.9298913076312
99.9499789427887
99.9404691985408
99.9686187413176
100.031587222695
99.9928516863735
99.9388824008989
99.9396680477831
99.9572569958635
99.998261172823
99.9695561670135
99.9720515936132
99.9742223667129
99.9562736930239
99.984606440845
99.9368941068116
99.9083752281051
99.9638063074572
99.9592839117868
99.9183102848469
99.9564341542708
99.9432584316871
99.9297910476453
100.017261268892
100.011435177322
99.9150759765969
99.878376392705
99.8980063285552
99.9235286691934
99.9501030787111
99.9789312038716
100.001964282559
99.9837085529234
99.9689190283733
99.9516105192087
99.9291739831723
100.00821924423
100.013667472612
99.9491026213947
99.9260534677224
99.9738410289018
100.025204270479
99.8926474989479
99.7935246372336
99.9291530085127
100.059703696512
100.025508356836
99.9485402466018
99.8761524238415
99.9214293885357
99.9938527134833
99.9233031643823
99.867243647792
99.8314273245962
99.7136500916409
99.6410444561764
99.6288082498712
99.6874339230959
99.8137217780765
99.8118209227464
99.7283516168642
99.6739826724881
99.7372856072055
99.7789518861597
99.7683779989194
99.7827517338375
99.8529160686873
99.8952146315134
99.9034311322157
99.8936629210231
99.9312966022706
99.9290559942652
99.88199619992
99.9766202992961
100.021340473706
99.9485023203053
100.048099903941
100.040889487432
99.9211766060088
99.9963500301667
100.00086564727
99.9386901509029
99.999149548891
99.9704714324021
99.9427430764564
99.9866022672041
99.9108830641133
99.9471420244393
99.9582689928377
100.010081540968
100.183969300854
100.132884933175
99.9632262048165
99.9269127558378
99.8961711223648
99.9102854014644
100.021935071599
99.9257377166964
99.8510550129954
99.9541172222547
99.9112233186295
99.9754069526276
100.056044562149
99.9226297884671
99.9898954252017
99.7710437872208
99.6388342197931
99.9364099757612
100.125998950085
100.2083186939
100.16501211937
99.8077470021976
99.6544794916526
99.8698051477884
99.9700965903112
99.9488103016511
100.069598108232
100.062550854283
99.9133562916775
99.8141026006121
99.9484873561065
100.030172907838
99.9531770441566
99.9884607965683
100.020804773465
100.039660475138
99.9551909198179
99.7564901590031
99.8829608204714
100.082588308321
100.048198271981
100.01245599821
99.9188639070517
99.8896956665599
99.9789902225463
99.8953916637968
99.9208913825544
99.9833648753837
99.9668905713339
99.9196250596263
100.087196790168
100.388800209071
100.194874460182
99.8706841340922
99.8640276185371
100.106983443123
100.403234088898
100.210824588082
99.7205834026077
99.893496797431
100.149729693873
99.9430234671519
99.8744841699351
100.030815699303
100.073439013286
100.040345860607
100.019175543369
100.17498757274
100.041066236545
99.951623424739
100.151975953825
100.086430660026
100.016764753802
100.153853553799
100.234204306399
100.182096266868
100.080236294311
100.009587169157
99.9912167034897
100.033966408253
99.9019604322181
99.9480118613083
99.9831056309718
99.9562423037706
99.981554965676
99.9436877287388
99.886061752659
99.8823248847258
99.89270000783
99.9926100702968
100.010098730097
99.9352697237877
99.9303654707584
99.9172125394578
99.8618750849871
99.9008669224235
99.9214170609979
99.9508975437069
100.002477907024
99.9728913907539
99.9462953349243
99.946522469519
99.9448824302048
99.9796361946125
99.9877291695545
99.9713589640167
99.9340538975349
99.9166805031465
99.9069913238234
99.9463282028385
99.9865348419551
99.9504968508637
99.9577735822933
99.9781870739423
99.9798422179118
100.015249478296
99.9875360822793
99.9328386149128
99.9668702820798
99.9846812987002
99.9576530035364
99.9365805672207
99.9568170838466
99.9618003520567
99.9393454616599
99.9352030577043
99.9496583107432
99.9356174990379
99.9375526251587
99.948684100694
99.9373322929251
99.9440192809738
99.9547869605979
99.9386187133584
99.8909379002129
99.8793268632533
99.8788003667418
99.8930686637283
99.8753263960383
99.8071945951522
99.7963088002926
99.8086667619301
99.8157605697006
99.758361240381
99.6822711622259
99.6508935147369
99.6296224533978
99.5768347875738
99.5253435682385
99.5066199117235
99.4650947934334
99.4045806094423
99.3704577828776
99.3458487873139
99.2916358791521
99.2042077401815
99.0807236879189
99.1355907647232
99.1466579023852
99.0848048156952
99.0567646340554
99.0455972672874
99.0424145243156
98.9899885164312
98.9940479998657
99.0661201764436
99.0425134675375
99.0320897233164
99.0347084443457
99.0139724668614
99.0226353877943
99.0320420327735
99.046748004167
99.0729708121731
99.1048275070257
99.125626535191
99.135184654111
99.1708486941229
99.1986734768459
99.2308907580632
99.2621254965588
99.2095350158822
99.2023266663654
99.211386575504
99.2162576517534
99.2903945719466
99.3463650379768
99.3735931551265
99.4006970499041
99.4414972818837
99.5161578737698
99.547843370611
99.5296604199281
99.576531456342
99.6232888881252
99.6168306461853
99.6690666663878
99.6795754799095
99.6540488751636
99.6754707315863
99.7090269367998
99.7169320024996
99.7002638899692
99.6877577813833
99.677252873179
99.6552935055291
99.6552757900054
99.668685623736
99.6621073832515
99.6309706804237
99.6506996126283
99.6554376856706
99.6464463086072
99.6558185254884
99.664800955923
99.6426838932871
99.6074926607432
99.5962964071881
99.5803386225314
99.5341546670892
99.5230810210105
99.5186785166137
99.4863041436366
99.4503903461635
99.4416177246666
99.4262522713848
99.4304638707739
99.4308644623378
99.4163971679386
99.4145913270013
99.3908699811695
99.3472503534056
99.323560041743
99.297803568121
99.278295706096
99.283587121516
99.2796420154727
99.2941469209425
99.3217588576089
99.3568742490023
99.4233138372403
99.4484420040996
99.4548856290087
99.4617759786144
99.4752137265294
99.4950100578311
99.5071791877428
99.5001854749434
99.4964507465833
99.5016813858218
99.5296897582487
99.55443967272
99.5595602933242
99.5666202695308
99.5597837356683
99.567673575368
99.5897386888995
99.6000010662963
99.5913716957834
99.5909959209438
99.595947032116
99.5942798613306
99.5915894149448
99.5958381903329
99.5950067485911
99.5891658982487
99.5760467987567
99.5721355334804
99.5875436375996
99.6041418537797
99.6310940927355
99.6286970448302
99.6389268116544
99.6658416559344
99.6613418828264
99.6891176424668
99.7211975417545
99.7108360032647
99.6886789187741
99.6992741340725
99.7296522009146
99.7135552845025
99.6892087774989
99.7011996128395
99.7195678646222
99.713179799481
99.6786481940909
99.6720005047077
99.6653927979939
99.6182905759886
99.5647924824172
99.4847542144254
99.3897799091479
99.3024994952691
99.1812301775234
99.059119504045
98.9792093563105
98.9012819653666
98.8166989179733
98.7625821795709
98.6996088304091
98.6500158586134
98.6335167171721
98.5783085393207
98.5383023192823
98.5516940031644
98.5493809951845
98.5799037708228
98.6401437165253
98.7240353683278
98.862057188373
98.9525365198275
99.0004487238116
99.1120485835772
99.1980535212687
99.2381165398103
99.2655606912479
99.300206829571
99.3403512409463
99.3934925865955
99.4205585864364
99.480387769468
99.52702255371
99.5482228504212
99.5668353942703
99.575001024891
99.5601030889944
99.5547070229986
99.557748514224
99.5752597364811
99.5882280433803
99.5908809742392
99.6222371850799
99.6512238722485
99.6522264680028
99.6487532929082
99.6352684135736
99.6552207479726
99.6876945690267
99.6879300897758
99.6792926315753
99.6537927785084
99.6288432161678
99.666400334852
99.7230694894484
99.7261228323568
99.7071561776408
99.682690882749
99.6815834366021
99.6890488972945
99.6900550705945
99.6859547457527
99.669907548514
99.6562663821478
99.6488948803757
99.6412980191032
99.6461868805453
99.6792005946062
99.689145790712
99.6704308327259
99.6974152564081
99.7081620354905
99.6632337539494
99.6257924729768
99.6254383280942
99.6407841869079
99.6601887200304
99.6464872137466
99.6197350176846
99.6232530938006
99.6103641815841
99.5708750133995
99.6036801728853
99.6232582608886
99.5774537089666
99.5741543151715
99.5907122673715
99.5659549291026
99.5954896794097
99.6186943246763
99.5927170114717
99.571227939038
99.5614076807177
99.5888071173583
99.6582767264534
99.6190610089619
99.4919041993255
99.4677654058176
99.5287188953219
99.5488594140075
99.5260177116585
99.5363472851756
99.5559736019545
99.5244193603539
99.557958895186
99.5637830809308
99.529465811538
99.5765659726529
99.5117914465199
99.4587338975747
99.4846748352004
99.5235805262679
99.5800387689131
99.5629795416509
99.5204941951669
99.4880078333458
99.523880121435
99.5583154725085
99.5125475619257
99.5525855833473
99.519841560362
99.5077971106849
99.5455044513599
99.5689434020895
99.5533678108751
99.4752976320568
99.4818450218304
99.5128224485275
99.5375708192246
99.4046238211873
99.3888854420967
99.5428848874732
99.5390877633631
99.4954745684522
99.4466996833732
99.4467563366606
